Time,Signal
0.0,0.05
0.2,0.07
0.4,0.1
0.6,0.14
0.8,0.2
1.0,0.3
1.2,0.5
1.4,0.9
1.6,1.2
1.8,1.5
2.0,1.8
2.2,2.0
2.4,1.6
2.6,1.1
2.8,0.8
3.0,0.6
3.2,0.4
3.4,0.3
3.6,0.2
3.8,0.15
4.0,0.1
4.2,0.08
4.4,0.07
4.6,0.06
4.8,0.05
5.0,0.05
